Time,Surface Speed (m/s),GForce (g),Acceleration (m/s^2),Thrust (kN),TWR,Mass (t),Pitch (deg),Heading (deg),Roll (deg),Angle of Attack (deg),Mach number,Altitude from Terrain (m),Altitude from the Sea (m),Downrange Distance (m),Latitude (deg),Longitude (deg),Apoapsis (m),Periapsis (m),Time to Apoapsis (s),Time to Periapsis (s),Inclination (deg),Orbital Velocity (m/s),Gravity (m/s^2),Target Distance (m),Target Speed (m/s),Stage DeltaV (m/s),Vessel DeltaV (m/s),Pressure (kPa),External Temperature (K),
0.5,0.76,,1.1,16.6,,,,,,,,0.61,73.02,,,,,,,,,,,,,,,,,
1,1.32,,1.12,16.6,,,,,,,,1.14,73.55,,,,,,,,,,,,,,,,,
1.5,1.89,,1.14,16.6,,,,,,,,1.95,74.36,,,,,,,,,,,,,,,,,
2,2.47,,1.16,16.6,,,,,,,,3.04,75.45,,,,,,,,,,,,,,,,,
2.5,3.06,,1.19,16.6,,,,,,,,4.43,76.84,,,,,,,,,,,,,,,,,
3,3.67,,1.21,16.6,,,,,,,,6.12,78.53,,,,,,,,,,,,,,,,,
3.5,4.28,,1.23,16.6,,,,,,,,8.11,80.52,,,,,,,,,,,,,,,,,
4,4.91,,1.26,16.6,,,,,,,,10.41,82.82,,,,,,,,,,,,,,,,,
4.52,5.57,,1.28,16.6,,,,,,,,13.14,85.55,,,,,,,,,,,,,,,,,
5.02,6.22,,1.3,16.6,,,,,,,,16.1,88.51,,,,,,,,,,,,,,,,,
5.52,6.88,,1.33,16.6,,,,,,,,19.38,91.79,,,,,,,,,,,,,,,,,
6.02,7.56,,1.35,16.61,,,,,,,,22.99,95.4,,,,,,,,,,,,,,,,,
6.54,8.27,,1.37,16.61,,,,,,,,27.11,99.52,,,,,,,,,,,,,,,,,
7.04,8.97,,1.4,16.61,,,,,,,,31.43,103.84,,,,,,,,,,,,,,,,,
7.54,9.68,,1.42,16.61,,,,,,,,36.09,108.51,,,,,,,,,,,,,,,,,
8.04,10.4,,1.44,16.61,,,,,,,,41.12,113.53,,,,,,,,,,,,,,,,,
8.54,11.13,,1.47,16.62,,,,,,,,46.5,118.92,,,,,,,,,,,,,,,,,
9.04,11.87,,1.49,16.62,,,,,,,,52.26,124.67,,,,,,,,,,,,,,,,,
9.54,12.63,,1.51,16.62,,,,,,,,58.39,130.8,,,,,,,,,,,,,,,,,
10.04,13.39,,1.54,16.63,,,,,,,,64.9,137.31,,,,,,,,,,,,,,,,,
10.54,14.17,,1.56,16.63,,,,,,,,71.8,144.21,,,,,,,,,,,,,,,,,
11.04,14.96,,1.58,16.63,,,,,,,,79.09,151.5,,,,,,,,,,,,,,,,,
11.54,15.76,,1.6,16.63,,,,,,,,86.77,159.18,,,,,,,,,,,,,,,,,
12.04,16.57,,1.63,16.64,,,,,,,,94.86,167.27,,,,,,,,,,,,,,,,,
12.54,17.4,,1.65,16.64,,,,,,,,103.36,175.77,,,,,,,,,,,,,,,,,
13.04,18.23,,1.67,16.65,,,,,,,,112.27,184.68,,,,,,,,,,,,,,,,,
13.54,19.08,,1.7,16.65,,,,,,,,121.61,194.02,,,,,,,,,,,,,,,,,
14.04,19.94,,1.72,16.66,,,,,,,,131.37,203.78,,,,,,,,,,,,,,,,,
14.54,20.81,,1.74,16.66,,,,,,,,141.56,213.97,,,,,,,,,,,,,,,,,
15.04,21.69,,1.76,16.66,,,,,,,,152.19,224.6,,,,,,,,,,,,,,,,,
15.54,22.58,,1.79,16.67,,,,,,,,163.26,235.67,,,,,,,,,,,,,,,,,
16.04,23.49,,1.81,16.67,,,,,,,,174.79,247.2,,,,,,,,,,,,,,,,,
16.54,24.4,,1.83,16.68,,,,,,,,186.77,259.17,,,,,,,,,,,,,,,,,
17.04,25.33,,1.85,16.69,,,,,,,,199.19,271.61,,,,,,,,,,,,,,,,,
17.54,26.26,,1.88,16.69,,,,,,,,212.1,284.51,,,,,,,,,,,,,,,,,
18.04,27.21,,1.9,16.7,,,,,,,,225.47,297.89,,,,,,,,,,,,,,,,,
18.54,28.17,,1.92,16.7,,,,,,,,239.31,311.74,,,,,,,,,,,,,,,,,
19.04,29.14,,1.94,16.71,,,,,,,,253.66,326.07,,,,,,,,,,,,,,,,,
19.54,30.12,,1.96,16.72,,,,,,,,268.46,340.89,,,,,,,,,,,,,,,,,
20.04,31.11,,1.98,16.72,,,,,,,,283.78,356.2,,,,,,,,,,,,,,,,,
20.54,32.11,,2,16.73,,,,,,,,299.59,372.01,,,,,,,,,,,,,,,,,
21.04,33.12,,2.02,16.74,,,,,,,,315.92,388.32,,,,,,,,,,,,,,,,,
21.54,34.14,,2.05,16.75,,,,,,,,332.71,405.14,,,,,,,,,,,,,,,,,
22.04,35.17,,2.07,16.75,,,,,,,,350.05,422.47,,,,,,,,,,,,,,,,,
22.54,36.22,,2.09,16.76,,,,,,,,367.91,440.32,,,,,,,,,,,,,,,,,
23.04,37.27,,2.11,16.77,,,,,,,,386.29,458.7,,,,,,,,,,,,,,,,,
23.54,38.33,,2.13,16.78,,,,,,,,405.19,477.61,,,,,,,,,,,,,,,,,
24.04,39.4,,2.15,16.79,,,,,,,,424.62,497.04,,,,,,,,,,,,,,,,,
24.54,40.48,,2.17,16.8,,,,,,,,444.6,517.02,,,,,,,,,,,,,,,,,
25.04,41.58,,2.19,16.8,,,,,,,,465.12,537.54,,,,,,,,,,,,,,,,,
25.54,42.68,,2.21,16.81,,,,,,,,486.19,558.61,,,,,,,,,,,,,,,,,
26.04,43.79,,2.22,16.82,,,,,,,,507.83,580.23,,,,,,,,,,,,,,,,,
26.54,44.91,,2.24,16.83,,,,,,,,529.99,602.41,,,,,,,,,,,,,,,,,
27.04,46.04,,2.26,16.84,,,,,,,,552.75,625.15,,,,,,,,,,,,,,,,,
27.54,47.18,,2.28,16.85,,,,,,,,576.06,648.46,,,,,,,,,,,,,,,,,
28.04,48.33,,2.3,16.86,,,,,,,,599.94,672.35,,,,,,,,,,,,,,,,,
28.56,49.53,,2.32,16.88,,,,,,,,625.4,697.79,,,,,,,,,,,,,,,,,
29.06,50.7,,2.33,16.89,,,,,,,,650.47,722.86,,,,,,,,,,,,,,,,,
29.56,51.87,,2.35,16.9,,,,,,,,676.1,748.5,,,,,,,,,,,,,,,,,
30.06,53.06,,2.37,16.91,,,,,,,,702.34,774.74,,,,,,,,,,,,,,,,,
30.56,54.25,,2.39,16.92,,,,,,,,729.16,801.57,,,,,,,,,,,,,,,,,
31.06,55.45,,2.4,16.93,,,,,,,,756.59,829,,,,,,,,,,,,,,,,,
31.56,56.66,,2.42,16.94,,,,,,,,784.62,857.03,,,,,,,,,,,,,,,,,
32.06,57.87,,2.44,16.96,,,,,,,,813.26,885.67,,,,,,,,,,,,,,,,,
32.56,59.1,,2.45,16.97,,,,,,,,842.51,914.92,,,,,,,,,,,,,,,,,
33.06,60.33,,2.47,16.98,,,,,,,,872.38,944.78,,,,,,,,,,,,,,,,,
33.56,61.57,,2.48,17,,,,,,,,902.86,975.26,,,,,,,,,,,,,,,,,
34.06,62.82,,2.5,17.01,,,,,,,,933.97,1006.37,,,,,,,,,,,,,,,,,
34.56,64.08,,2.52,17.02,,,,,,,,965.69,1038.1,,,,,,,,,,,,,,,,,
35.06,65.35,,2.53,17.04,,,,,,,,998.05,1070.46,,,,,,,,,,,,,,,,,
35.56,66.62,,2.55,17.05,,,,,,,,1031.04,1103.45,,,,,,,,,,,,,,,,,
36.06,67.9,,2.56,17.06,,,,,,,,1064.68,1137.09,,,,,,,,,,,,,,,,,
36.56,69.18,,2.58,17.08,,,,,,,,1099.05,1171.36,,,,,,,,,,,,,,,,,
37.06,70.48,,2.59,17.09,,,,,,,,1134.06,1206.28,,,,,,,,,,,,,,,,,
37.56,71.78,,2.6,17.11,,,,,,,,1169.7,1241.85,,,,,,,,,,,,,,,,,
38.06,73.09,,2.62,17.12,,,,,,,,1206.02,1278.07,,,,,,,,,,,,,,,,,
38.56,74.4,,2.63,17.14,,,,,,,,1242.97,1314.95,,,,,,,,,,,,,,,,,
39.06,75.73,,2.65,17.15,,,,,,,,1280.6,1352.49,,,,,,,,,,,,,,,,,
39.56,77.06,,2.66,17.17,,,,,,,,1318.88,1390.69,,,,,,,,,,,,,,,,,
40.06,78.39,,2.67,17.19,,,,,,,,1357.63,1429.55,,,,,,,,,,,,,,,,,
40.56,79.73,,2.69,17.2,,,,,,,,1397.03,1469.09,,,,,,,,,,,,,,,,,
41.08,81.14,,2.7,17.22,,,,,,,,1438.86,1510.92,,,,,,,,,,,,,,,,,
41.58,82.49,,2.71,17.24,,,,,,,,1480.86,1551.83,,,,,,,,,,,,,,,,,
42.08,83.86,,2.73,17.25,,,,,,,,1522.34,1593.42,,,,,,,,,,,,,,,,,
42.58,85.23,,2.74,17.27,,,,,,,,1564.47,1635.7,,,,,,,,,,,,,,,,,
43.08,86.6,,2.75,17.29,,,,,,,,1607.53,1678.66,,,,,,,,,,,,,,,,,
43.58,87.99,,2.77,17.31,,,,,,,,1651.28,1722.31,,,,,,,,,,,,,,,,,
44.08,89.38,,2.78,17.32,,,,,,,,1695.74,1766.65,,,,,,,,,,,,,,,,,
44.58,90.77,,2.79,17.34,,,,,,,,1740.88,1811.69,,,,,,,,,,,,,,,,,
45.08,92.17,,2.81,17.36,,,,,,,,1786.72,1857.43,,,,,,,,,,,,,,,,,
45.58,93.58,,2.82,17.38,,,,,,,,1833.28,1903.88,,,,,,,,,,,,,,,,,
46.08,95,,2.83,17.4,,,,,,,,1880.54,1951.03,,,,,,,,,,,,,,,,,
46.58,96.42,,2.84,17.42,,,,,,,,1928.51,1998.88,,,,,,,,,,,,,,,,,
47.08,97.85,,2.86,17.43,,,,,,,,1977.19,2047.45,,,,,,,,,,,,,,,,,
47.58,99.28,,2.87,17.45,,,,,,,,2026.58,2096.74,,,,,,,,,,,,,,,,,
48.08,100.72,,2.88,17.47,,,,,,,,2076.71,2146.74,,,,,,,,,,,,,,,,,
48.58,102.17,,2.9,17.49,,,,,,,,2127.54,2197.47,,,,,,,,,,,,,,,,,
49.08,103.62,,2.91,17.51,,,,,,,,2179.11,2248.92,,,,,,,,,,,,,,,,,
49.58,105.08,,2.92,17.53,,,,,,,,2231.55,2301.1,,,,,,,,,,,,,,,,,
50.08,106.55,,2.94,17.55,,,,,,,,2284.76,2354.01,,,,,,,,,,,,,,,,,
50.58,108.02,,2.95,17.57,,,,,,,,2338.71,2407.66,,,,,,,,,,,,,,,,,
51.08,109.5,,2.96,17.59,,,,,,,,2393.39,2462.04,,,,,,,,,,,,,,,,,
51.58,110.99,,2.98,17.61,,,,,,,,2448.83,2517.17,,,,,,,,,,,,,,,,,
52.08,112.48,,2.99,17.63,,,,,,,,2505.02,2573.04,,,,,,,,,,,,,,,,,
52.58,113.98,,3,17.65,,,,,,,,2561.95,2629.66,,,,,,,,,,,,,,,,,
53.08,115.49,,3.02,17.68,,,,,,,,2619.42,2687.03,,,,,,,,,,,,,,,,,
53.58,117.01,,3.03,17.7,,,,,,,,2677.57,2745.16,,,,,,,,,,,,,,,,,
54.08,118.53,,3.05,17.72,,,,,,,,2736.44,2804.05,,,,,,,,,,,,,,,,,
54.58,120.06,,3.06,17.74,,,,,,,,2796.1,2863.7,,,,,,,,,,,,,,,,,
55.08,121.6,,3.08,17.76,,,,,,,,2856.51,2924.11,,,,,,,,,,,,,,,,,
55.58,123.14,,3.09,17.78,,,,,,,,2917.7,2985.3,,,,,,,,,,,,,,,,,
56.08,124.69,,3.11,17.8,,,,,,,,2979.66,3047.26,,,,,,,,,,,,,,,,,
56.58,126.25,,3.12,17.83,,,,,,,,3042.4,3110,,,,,,,,,,,,,,,,,
57.08,127.82,,3.14,17.85,,,,,,,,3105.93,3173.52,,,,,,,,,,,,,,,,,
57.58,129.39,,3.15,17.87,,,,,,,,3170.25,3237.82,,,,,,,,,,,,,,,,,
58.08,130.98,,3.17,17.89,,,,,,,,3235.31,3302.92,,,,,,,,,,,,,,,,,
58.58,132.57,,3.19,17.91,,,,,,,,3301.22,3368.81,,,,,,,,,,,,,,,,,
59.08,134.17,,3.2,17.94,,,,,,,,3367.91,3435.49,,,,,,,,,,,,,,,,,
59.58,135.78,,3.22,17.96,,,,,,,,3435.39,3502.98,,,,,,,,,,,,,,,,,
60.08,137.4,,3.24,17.98,,,,,,,,3503.69,3571.28,,,,,,,,,,,,,,,,,
60.58,139.02,,3.26,18,,,,,,,,3572.79,3640.39,,,,,,,,,,,,,,,,,
61.08,140.66,,3.27,18.03,,,,,,,,3642.72,3710.31,,,,,,,,,,,,,,,,,
61.58,142.31,,3.29,18.05,,,,,,,,3713.46,3781.05,,,,,,,,,,,,,,,,,
62.08,143.96,,3.31,18.07,,,,,,,,3785.02,3852.62,,,,,,,,,,,,,,,,,
62.58,145.63,,3.33,18.1,,,,,,,,3857.43,3925.02,,,,,,,,,,,,,,,,,
63.08,147.3,,3.35,18.12,,,,,,,,3930.68,3998.26,,,,,,,,,,,,,,,,,
63.58,148.99,,3.37,18.14,,,,,,,,4004.75,4072.33,,,,,,,,,,,,,,,,,
64.08,150.68,,3.4,18.17,,,,,,,,4079.66,4147.25,,,,,,,,,,,,,,,,,
64.58,152.39,,3.42,18.19,,,,,,,,4155.43,4223.02,,,,,,,,,,,,,,,,,
65.08,154.11,,3.44,18.21,,,,,,,,4232.05,4299.65,,,,,,,,,,,,,,,,,
65.58,155.84,,3.46,18.23,,,,,,,,4309.56,4377.14,,,,,,,,,,,,,,,,,
66.08,157.58,,3.49,18.26,,,,,,,,4387.93,4455.5,,,,,,,,,,,,,,,,,
66.58,159.33,,3.51,18.28,,,,,,,,4467.14,4534.73,,,,,,,,,,,,,,,,,
67.08,161.1,,3.53,18.3,,,,,,,,4547.26,4614.84,,,,,,,,,,,,,,,,,
67.6,162.95,,3.56,18.33,,,,,,,,4631.53,4699.09,,,,,,,,,,,,,,,,,
68.1,164.74,,3.59,18.35,,,,,,,,4713.45,4781.02,,,,,,,,,,,,,,,,,
68.6,166.55,,3.61,18.37,,,,,,,,4796.28,4863.84,,,,,,,,,,,,,,,,,
69.1,168.36,,3.64,18.4,,,,,,,,4879.99,4947.57,,,,,,,,,,,,,,,,,
69.62,170.27,,3.67,18.42,,,,,,,,4968.05,5035.62,,,,,,,,,,,,,,,,,
70.12,172.12,,3.7,18.45,,,,,,,,5053.65,5121.22,,,,,,,,,,,,,,,,,
70.62,173.98,,3.73,18.47,,,,,,,,5140.16,5207.74,,,,,,,,,,,,,,,,,
71.12,175.86,,3.76,18.49,,,,,,,,5227.64,5295.21,,,,,,,,,,,,,,,,,
71.62,177.75,,3.79,18.52,,,,,,,,5316.03,5383.61,,,,,,,,,,,,,,,,,
72.12,179.65,,3.82,18.54,,,,,,,,5405.4,5472.96,,,,,,,,,,,,,,,,,
72.62,181.58,,3.85,18.56,,,,,,,,5495.7,5563.27,,,,,,,,,,,,,,,,,
73.12,183.52,,3.88,18.58,,,,,,,,5586.98,5654.55,,,,,,,,,,,,,,,,,
73.62,185.48,,3.92,18.61,,,,,,,,5679.23,5746.8,,,,,,,,,,,,,,,,,
74.12,187.45,,3.95,18.63,,,,,,,,5772.48,5840.04,,,,,,,,,,,,,,,,,
74.62,189.44,,3.99,18.65,,,,,,,,5866.68,5934.26,,,,,,,,,,,,,,,,,
75.12,191.46,,4.03,18.68,,,,,,,,5961.92,6029.49,,,,,,,,,,,,,,,,,
75.62,193.49,,4.07,18.7,,,,,,,,6058.16,6125.73,,,,,,,,,,,,,,,,,
76.12,195.54,,4.1,18.72,,,,,,,,6155.42,6222.99,,,,,,,,,,,,,,,,,
76.62,197.61,,4.14,18.74,,,,,,,,6253.71,6321.28,,,,,,,,,,,,,,,,,
77.12,199.7,,4.19,18.77,,,,,,,,6353.05,6420.6,,,,,,,,,,,,,,,,,
77.62,201.81,,4.23,18.79,,,,,,,,6453.42,6520.98,,,,,,,,,,,,,,,,,
78.12,203.94,,4.27,18.81,,,,,,,,6554.85,6622.42,,,,,,,,,,,,,,,,,
78.62,199.45,,12.3,0,,,,,,,,6656.09,6723.65,,,,,,,,,,,,,,,,,
79.14,192.42,,13.48,0,,,,,,,,6757.89,6825.44,,,,,,,,,,,,,,,,,
79.64,185.82,,13.18,0,,,,,,,,6852.34,6919.91,,,,,,,,,,,,,,,,,
80.14,179.35,,12.9,0,,,,,,,,6943.54,7011.11,,,,,,,,,,,,,,,,,
80.64,173.02,,12.64,0,,,,,,,,7031.55,7099.12,,,,,,,,,,,,,,,,,
81.14,166.81,,12.4,0,,,,,,,,7116.44,7183.98,,,,,,,,,,,,,,,,,
81.64,160.71,,12.17,0,,,,,,,,7198.23,7265.78,,,,,,,,,,,,,,,,,
82.14,154.72,,11.96,0,,,,,,,,7277,7344.55,,,,,,,,,,,,,,,,,
82.64,148.84,,11.76,0,,,,,,,,7352.79,7420.35,,,,,,,,,,,,,,,,,
83.14,143.04,,11.58,0,,,,,,,,7425.7,7493.23,,,,,,,,,,,,,,,,,
83.64,137.33,,11.4,0,,,,,,,,7495.68,7563.24,,,,,,,,,,,,,,,,,
84.14,131.71,,11.24,0,,,,,,,,7562.94,7630.41,,,,,,,,,,,,,,,,,
84.64,126.16,,11.09,0,,,,,,,,7627.61,7694.79,,,,,,,,,,,,,,,,,
85.14,120.68,,10.95,0,,,,,,,,7689.55,7756.41,,,,,,,,,,,,,,,,,
85.64,115.27,,10.81,0,,,,,,,,7748.77,7815.31,,,,,,,,,,,,,,,,,
86.14,109.92,,10.69,0,,,,,,,,7805.29,7871.52,,,,,,,,,,,,,,,,,
86.64,104.63,,10.58,0,,,,,,,,7859.13,7925.06,,,,,,,,,,,,,,,,,
87.14,99.39,,10.47,0,,,,,,,,7910.36,7975.98,,,,,,,,,,,,,,,,,
87.64,94.21,,10.37,0,,,,,,,,7958.97,8024.28,,,,,,,,,,,,,,,,,
88.14,89.07,,10.27,0,,,,,,,,8005.04,8070.01,,,,,,,,,,,,,,,,,
88.64,83.98,,10.19,0,,,,,,,,8048.38,8113.17,,,,,,,,,,,,,,,,,
89.14,78.93,,10.11,0,,,,,,,,8089.01,8153.8,,,,,,,,,,,,,,,,,
89.64,73.91,,10.03,0,,,,,,,,8127.12,8191.91,,,,,,,,,,,,,,,,,
90.16,68.74,,9.96,0,,,,,,,,8164.1,8228.89,,,,,,,,,,,,,,,,,
90.66,63.79,,9.9,0,,,,,,,,8197.12,8261.92,,,,,,,,,,,,,,,,,
91.16,58.88,,9.84,0,,,,,,,,8227.68,8292.47,,,,,,,,,,,,,,,,,
91.66,53.99,,9.78,0,,,,,,,,8255.78,8320.58,,,,,,,,,,,,,,,,,
92.16,49.14,,9.74,0,,,,,,,,8281.45,8346.24,,,,,,,,,,,,,,,,,
92.66,44.3,,9.69,0,,,,,,,,8304.68,8369.47,,,,,,,,,,,,,,,,,
93.16,39.49,,9.65,0,,,,,,,,8325.49,8390.28,,,,,,,,,,,,,,,,,
93.66,34.71,,9.62,0,,,,,,,,8343.89,8408.68,,,,,,,,,,,,,,,,,
94.16,29.94,,9.59,0,,,,,,,,8359.9,8424.68,,,,,,,,,,,,,,,,,
94.66,25.21,,9.56,0,,,,,,,,8373.5,8438.29,,,,,,,,,,,,,,,,,
95.16,20.5,,9.54,0,,,,,,,,8384.72,8449.51,,,,,,,,,,,,,,,,,
95.66,15.85,,9.52,0,,,,,,,,8393.56,8458.35,,,,,,,,,,,,,,,,,
96.16,11.29,,9.5,0,,,,,,,,8400.02,8464.8,,,,,,,,,,,,,,,,,
96.66,7,,9.49,0,,,,,,,,8404.1,8468.88,,,,,,,,,,,,,,,,,
97.16,3.95,,9.49,0,,,,,,,,8405.82,8470.59,,,,,,,,,,,,,,,,,
97.66,5.22,,9.49,0,,,,,,,,8405.16,8469.93,,,,,,,,,,,,,,,,,
98.16,9.16,,9.48,0,,,,,,,,8402.13,8466.9,,,,,,,,,,,,,,,,,
98.66,13.61,,9.47,0,,,,,,,,8396.72,8461.49,,,,,,,,,,,,,,,,,
99.16,18.21,,9.46,0,,,,,,,,8388.95,8453.72,,,,,,,,,,,,,,,,,
99.66,22.85,,9.45,0,,,,,,,,8378.81,8443.58,,,,,,,,,,,,,,,,,
100.18,27.69,,9.42,0,,,,,,,,8365.77,8430.54,,,,,,,,,,,,,,,,,
100.68,32.36,,9.4,0,,,,,,,,8350.83,8415.59,,,,,,,,,,,,,,,,,
101.18,37.01,,9.37,0,,,,,,,,8333.53,8398.3,,,,,,,,,,,,,,,,,
101.68,41.66,,9.34,0,,,,,,,,8313.9,8378.67,,,,,,,,,,,,,,,,,
102.18,46.3,,9.31,0,,,,,,,,8291.94,8356.71,,,,,,,,,,,,,,,,,
102.7,51.11,,9.27,0,,,,,,,,8266.64,8331.4,,,,,,,,,,,,,,,,,
103.2,55.71,,9.22,0,,,,,,,,8239.95,8304.71,,,,,,,,,,,,,,,,,
103.7,60.29,,9.18,0,,,,,,,,8210.95,8275.72,,,,,,,,,,,,,,,,,
104.2,64.85,,9.13,0,,,,,,,,8179.67,8244.44,,,,,,,,,,,,,,,,,
104.7,69.38,,9.07,0,,,,,,,,8146.12,8210.88,,,,,,,,,,,,,,,,,
105.2,73.88,,9.02,0,,,,,,,,8110.3,8175.06,,,,,,,,,,,,,,,,,
105.7,78.36,,8.95,0,,,,,,,,8072.23,8136.99,,,,,,,,,,,,,,,,,
